Gas Data
Time: 0.000000e+00
radius	rho	ne	ne_prev	dne_dt	n_tot	dt	T	vel	nH1	fH1	fHeI	fHII	fHeII	fHeIII	j_lya
5317.0	2.6521212193829467e-28	0.0	0.0	0.0	0.0001086506	4.016064e-05	500.0	0.0	0.00012050613508198743	1.0	1.0	0.0	0.0	0.0	0.0
5317.737	2.665610415190445e-28	0.0	0.0	0.0	0.0001086506	4.016064e-05	500.0	0.0	0.0001211190523348813	1.0	1.0	0.0	0.0	0.0	0.0
5318.474	2.68684813443745e-28	0.0	0.0	0.0	0.0001086506	4.016064e-05	500.0	0.0	0.00012208404422352825	1.0	1.0	0.0	0.0	0.0	0.0
5319.211	2.7195994020945357e-28	0.0	0.0	0.0	0.0001086506	4.016064e-05	500.0	0.0	0.00012357218460547854	1.0	1.0	0.0	0.0	0.0	0.0
5319.948	2.768780856251855e-28	0.0	0.0	0.0	0.0001086506	4.016064e-05	500.0	0.0	0.00012580687392318228	1.0	1.0	0.0	0.0	0.0	0.0
5320.686	2.8404793979357284e-28	0.0	0.0	0.0	0.0001086506	4.016064e-05	500.0	0.0	0.00012906468660768268	1.0	1.0	0.0	0.0	0.0	0.0
5321.423	2.9411106605012006e-28	0.0	0.0	0.0	0.0001086506	4.016064e-05	500.0	0.0	0.00013363713391196055	1.0	1.0	0.0	0.0	0.0	0.0
5322.16	3.0771529200832036e-28	0.0	0.0	0.0	0.0001086506	4.016064e-05	500.0	0.0	0.0001398185734292168	1.0	1.0	0.0	0.0	0.0	0.0
5322.897	3.253577671735296e-28	0.0	0.0	0.0	0.0001086506	4.016064e-05	500.0	0.0	0.00014783489817297784	1.0	1.0	0.0	0.0	0.0	0.0
5323.634	3.472493762989635e-28	0.0	0.0	0.0	0.0001086506	4.016064e-05	500.0	0.0	0.0001577819292028996	1.0	1.0	0.0	0.0	0.0	0.0
5324.371	3.7317947517959e-28	0.0	0.0	0.0	0.0001086506	4.016064e-05	500.0	0.0	0.0001695639547587491	1.0	1.0	0.0	0.0	0.0	0.0
5325.108	4.024236572522597e-28	0.0	0.0	0.0	0.0001086506	4.016064e-05	500.0	0.0	0.00018285182157816736	1.0	1.0	0.0	0.0	0.0	0.0
5325.845	4.337239136546544e-28	0.0	0.0	0.0	0.0001086506	4.016064e-05	500.0	0.0	0.00019707392009523812	1.0	1.0	0.0	0.0	0.0	0.0
5326.582	4.653573542372461e-28	0.0	0.0	0.0	0.0001086506	4.016064e-05	500.0	0.0	0.0002114474096480299	1.0	1.0	0.0	0.0	0.0	0.0
5327.319	4.952921706397207e-28	0.0	0.0	0.0	0.0001086506	4.016064e-05	500.0	0.0	0.00022504908442325152	1.0	1.0	0.0	0.0	0.0	0.0
5328.057	5.214427746631822e-28	0.0	0.0	0.0	0.0001086506	4.016064e-05	500.0	0.0	0.00023693130231697211	1.0	1.0	0.0	0.0	0.0	0.0
5328.794	5.41787041870359e-28	0.0	0.0	0.0	0.0001086506	4.016064e-05	500.0	0.0	0.00024617525766220516	1.0	1.0	0.0	0.0	0.0	0.0
5329.531	5.548214107714827e-28	0.0	0.0	0.0	0.0001086506	4.016064e-05	500.0	0.0	0.0002520977675687196	1.0	1.0	0.0	0.0	0.0	0.0
5330.268	5.595880753056142e-28	0.0	0.0	0.0	0.0001086506	4.016064e-05	500.0	0.0	0.00025426362754541485	1.0	1.0	0.0	0.0	0.0	0.0
5331.005	5.557985100522038e-28	0.0	0.0	0.0	0.0001086506	4.016064e-05	500.0	0.0	0.0002525417384439969	1.0	1.0	0.0	0.0	0.0	0.0
5331.742	5.438167615680839e-28	0.0	0.0	0.0	0.0001086506	4.016064e-05	500.0	0.0	0.00024709751443646196	1.0	1.0	0.0	0.0	0.0	0.0
5332.479	5.245551729685777e-28	0.0	0.0	0.0	0.0001086506	4.016064e-05	500.0	0.0	0.00023834550272334044	1.0	1.0	0.0	0.0	0.0	0.0
5333.216	4.99313803435042e-28	0.0	0.0	0.0	0.0001086506	4.016064e-05	500.0	0.0	0.00022687641954406433	1.0	1.0	0.0	0.0	0.0	0.0
5333.953	4.696008982850139e-28	0.0	0.0	0.0	0.0001086506	4.016064e-05	500.0	0.0	0.00021337557600976828	1.0	1.0	0.0	0.0	0.0	0.0
5334.69	4.369670003545364e-28	0.0	0.0	0.0	0.0001086506	4.016064e-05	500.0	0.0	0.00019854750222671213	1.0	1.0	0.0	0.0	0.0	0.0
5335.428	4.028270054603429e-28	0.0	0.0	0.0	0.0001086506	4.016064e-05	500.0	0.0	0.00018303509349384416	1.0	1.0	0.0	0.0	0.0	0.0
5336.165	3.6855838232109047e-28	0.0	0.0	0.0	0.0001086506	4.016064e-05	500.0	0.0	0.00016746423911919657	1.0	1.0	0.0	0.0	0.0	0.0
5336.902	3.3517199349981322e-28	0.0	0.0	0.0	0.0001086506	4.016064e-05	500.0	0.0	0.0001522942512174646	1.0	1.0	0.0	0.0	0.0	0.0
5337.639	3.0348029887035084e-28	0.0	0.0	0.0	0.0001086506	4.016064e-05	500.0	0.0	0.0001378942923992789	1.0	1.0	0.0	0.0	0.0	0.0
5338.376	2.7405728188147984e-28	0.0	0.0	0.0	0.0001086506	4.016064e-05	500.0	0.0	0.00012452516721047832	1.0	1.0	0.0	0.0	0.0	0.0
5339.113	2.4725870871418845e-28	0.0	0.0	0.0	0.0001086506	4.016064e-05	500.0	0.0	0.00011234852741550884	1.0	1.0	0.0	0.0	0.0	0.0
5339.85	2.2325156528593294e-28	0.0	0.0	0.0	0.0001086506	4.016064e-05	500.0	0.0	0.0001014402474780967	1.0	1.0	0.0	0.0	0.0	0.0
5340.587	2.020489337468179e-28	0.0	0.0	0.0	0.0001086506	4.016064e-05	500.0	0.0	9.180627161880066e-05	1.0	1.0	0.0	0.0	0.0	0.0
5341.324	1.8354748139848555e-28	0.0	0.0	0.0	0.0001086506	4.016064e-05	500.0	0.0	8.339964789584798e-05	1.0	1.0	0.0	0.0	0.0	0.0
5342.061	1.6756485511247608e-28	0.0	0.0	0.0	0.0001086506	4.016064e-05	500.0	0.0	7.613751934715783e-05	1.0	1.0	0.0	0.0	0.0	0.0
5342.799	1.5385695955978553e-28	0.0	0.0	0.0	0.0001086506	4.016064e-05	500.0	0.0	6.990897481046944e-05	1.0	1.0	0.0	0.0	0.0	0.0
5343.536	1.4221769191595823e-28	0.0	0.0	0.0	0.0001086506	4.016064e-05	500.0	0.0	6.462036602180783e-05	1.0	1.0	0.0	0.0	0.0	0.0
5344.273	1.3238870867131794e-28	0.0	0.0	0.0	0.0001086506	4.016064e-05	500.0	0.0	6.015430778155593e-05	1.0	1.0	0.0	0.0	0.0	0.0
5345.01	1.2414855433589018e-28	0.0	0.0	0.0	0.0001086506	4.016064e-05	500.0	0.0	5.6410175936509594e-05	1.0	1.0	0.0	0.0	0.0	0.0
5345.747	1.1729712169817216e-28	0.0	0.0	0.0	0.0001086506	4.016064e-05	500.0	0.0	5.32970464878561e-05	1.0	1.0	0.0	0.0	0.0	0.0
5346.484	1.1165507534563569e-28	0.0	0.0	0.0	0.0001086506	4.016064e-05	500.0	0.0	5.073343365248282e-05	1.0	1.0	0.0	0.0	0.0	0.0
5347.221	1.0706120921717913e-28	0.0	0.0	0.0	0.0001086506	4.016064e-05	500.0	0.0	4.864608919711456e-05	1.0	1.0	0.0	0.0	0.0	0.0
5347.958	1.0337033816499758e-28	0.0	0.0	0.0	0.0001086506	4.016064e-05	500.0	0.0	4.6969044413739725e-05	1.0	1.0	0.0	0.0	0.0	0.0
5348.695	1.0045307756081599e-28	0.0	0.0	0.0	0.0001086506	4.016064e-05	500.0	0.0	4.5643509977879137e-05	1.0	1.0	0.0	0.0	0.0	0.0
5349.432	9.81973818739555e-29	0.0	0.0	0.0	0.0001086506	4.016064e-05	500.0	0.0	4.4618575042182984e-05	1.0	1.0	0.0	0.0	0.0	0.0
5350.17	9.650867320141153e-29	0.0	0.0	0.0	0.0001086506	4.016064e-05	500.0	0.0	4.3851265637467864e-05	1.0	1.0	0.0	0.0	0.0	0.0
5350.907	9.531925756017105e-29	0.0	0.0	0.0	0.0001086506	4.016064e-05	500.0	0.0	4.3310823213929984e-05	1.0	1.0	0.0	0.0	0.0	0.0
5351.644	9.457364943783881e-29	0.0	0.0	0.0	0.0001086506	4.016064e-05	500.0	0.0	4.2972036462965034e-05	1.0	1.0	0.0	0.0	0.0	0.0
5352.381	9.4234997680507e-29	0.0	0.0	0.0	0.0001086506	4.016064e-05	500.0	0.0	4.2818161089107605e-05	1.0	1.0	0.0	0.0	0.0	0.0
5353.118	9.427757576158198e-29	0.0	0.0	0.0	0.0001086506	4.016064e-05	500.0	0.0	4.283750756524924e-05	1.0	1.0	0.0	0.0	0.0	0.0
5353.855	9.468173055665036e-29	0.0	0.0	0.0	0.0001086506	4.016064e-05	500.0	0.0	4.302114597503458e-05	1.0	1.0	0.0	0.0	0.0	0.0
5354.592	9.542983511446611e-29	0.0	0.0	0.0	0.0001086506	4.016064e-05	500.0	0.0	4.33610670474227e-05	1.0	1.0	0.0	0.0	0.0	0.0
5355.329	9.650387494969641e-29	0.0	0.0	0.0	0.0001086506	4.016064e-05	500.0	0.0	4.3849085425020884e-05	1.0	1.0	0.0	0.0	0.0	0.0
5356.066	9.788456023606217e-29	0.0	0.0	0.0	0.0001086506	4.016064e-05	500.0	0.0	4.4476436265580186e-05	1.0	1.0	0.0	0.0	0.0	0.0
5356.803	9.955130252749463e-29	0.0	0.0	0.0	0.0001086506	4.016064e-05	500.0	0.0	4.5233764664637875e-05	1.0	1.0	0.0	0.0	0.0	0.0
5357.541	1.0148503548754365e-28	0.0	0.0	0.0	0.0001086506	4.016064e-05	500.0	0.0	4.611240732845388e-05	1.0	1.0	0.0	0.0	0.0	0.0
5358.278	1.0365691343363282e-28	0.0	0.0	0.0	0.0001086506	4.016064e-05	500.0	0.0	4.709925745898413e-05	1.0	1.0	0.0	0.0	0.0	0.0
5359.015	1.0604310161696248e-28	0.0	0.0	0.0	0.0001086506	4.016064e-05	500.0	0.0	4.8183485108345756e-05	1.0	1.0	0.0	0.0	0.0	0.0
5359.752	1.086135492493583e-28	0.0	0.0	0.0	0.0001086506	4.016064e-05	500.0	0.0	4.935143590692476e-05	1.0	1.0	0.0	0.0	0.0	0.0
5360.489	1.1133390976512966e-28	0.0	0.0	0.0	0.0001086506	4.016064e-05	500.0	0.0	5.058750358508889e-05	1.0	1.0	0.0	0.0	0.0	0.0
5361.226	1.1416603088732972e-28	0.0	0.0	0.0	0.0001086506	4.016064e-05	500.0	0.0	5.187435264774145e-05	1.0	1.0	0.0	0.0	0.0	0.0
5361.963	1.1706948627639574e-28	0.0	0.0	0.0	0.0001086506	4.016064e-05	500.0	0.0	5.319361431935056e-05	1.0	1.0	0.0	0.0	0.0	0.0
5362.7	1.2000364639346142e-28	0.0	0.0	0.0	0.0001086506	4.016064e-05	500.0	0.0	5.452682749541181e-05	1.0	1.0	0.0	0.0	0.0	0.0
5363.437	1.2292942327514063e-28	0.0	0.0	0.0	0.0001086506	4.016064e-05	500.0	0.0	5.585623152697195e-05	1.0	1.0	0.0	0.0	0.0	0.0
5364.174	1.2580980935519415e-28	0.0	0.0	0.0	0.0001086506	4.016064e-05	500.0	0.0	5.716501104849007e-05	1.0	1.0	0.0	0.0	0.0	0.0
5364.912	1.2861243164237622e-28	0.0	0.0	0.0	0.0001086506	4.016064e-05	500.0	0.0	5.8438456536029025e-05	1.0	1.0	0.0	0.0	0.0	0.0
5365.649	1.3129171611009838e-28	0.0	0.0	0.0	0.0001086506	4.016064e-05	500.0	0.0	5.965586022644374e-05	1.0	1.0	0.0	0.0	0.0	0.0
5366.386	1.3380823564153057e-28	0.0	0.0	0.0	0.0001086506	4.016064e-05	500.0	0.0	6.079930736745257e-05	1.0	1.0	0.0	0.0	0.0	0.0
5367.123	1.3611030567258581e-28	0.0	0.0	0.0	0.0001086506	4.016064e-05	500.0	0.0	6.184531371174433e-05	1.0	1.0	0.0	0.0	0.0	0.0
5367.86	1.3813651471636583e-28	0.0	0.0	0.0	0.0001086506	4.016064e-05	500.0	0.0	6.276597532762216e-05	1.0	1.0	0.0	0.0	0.0	0.0
5368.597	1.3981696479652314e-28	0.0	0.0	0.0	0.0001086506	4.016064e-05	500.0	0.0	6.35295322226765e-05	1.0	1.0	0.0	0.0	0.0	0.0
5369.334	1.4107728708841533e-28	0.0	0.0	0.0	0.0001086506	4.016064e-05	500.0	0.0	6.410219295644544e-05	1.0	1.0	0.0	0.0	0.0	0.0
5370.071	1.418449636562947e-28	0.0	0.0	0.0	0.0001086506	4.016064e-05	500.0	0.0	6.445100708874091e-05	1.0	1.0	0.0	0.0	0.0	0.0
5370.808	1.4205700003525877e-28	0.0	0.0	0.0	0.0001086506	4.016064e-05	500.0	0.0	6.454735141998413e-05	1.0	1.0	0.0	0.0	0.0	0.0
5371.545	1.416677974622544e-28	0.0	0.0	0.0	0.0001086506	4.016064e-05	500.0	0.0	6.437050694736368e-05	1.0	1.0	0.0	0.0	0.0	0.0
5372.283	1.4065435138254834e-28	0.0	0.0	0.0	0.0001086506	4.016064e-05	500.0	0.0	6.391002094360635e-05	1.0	1.0	0.0	0.0	0.0	0.0
5373.02	1.3902789385752907e-28	0.0	0.0	0.0	0.0001086506	4.016064e-05	500.0	0.0	6.317099699257938e-05	1.0	1.0	0.0	0.0	0.0	0.0
5373.757	1.3682862755676023e-28	0.0	0.0	0.0	0.0001086506	4.016064e-05	500.0	0.0	6.21717022394407e-05	1.0	1.0	0.0	0.0	0.0	0.0
5374.494	1.3413072813682384e-28	0.0	0.0	0.0	0.0001086506	4.016064e-05	500.0	0.0	6.0945840353640055e-05	1.0	1.0	0.0	0.0	0.0	0.0
5375.231	1.3103898383455485e-28	0.0	0.0	0.0	0.0001086506	4.016064e-05	500.0	0.0	5.9541024639315813e-05	1.0	1.0	0.0	0.0	0.0	0.0
5375.968	1.2768358240068627e-28	0.0	0.0	0.0	0.0001086506	4.016064e-05	500.0	0.0	5.8016409340856196e-05	1.0	1.0	0.0	0.0	0.0	0.0
5376.705	1.2421224227759497e-28	0.0	0.0	0.0	0.0001086506	4.016064e-05	500.0	0.0	5.643911423559668e-05	1.0	1.0	0.0	0.0	0.0	0.0
5377.442	1.2078007376682305e-28	0.0	0.0	0.0	0.0001086506	4.016064e-05	500.0	0.0	5.48796177873934e-05	1.0	1.0	0.0	0.0	0.0	0.0
5378.179	1.1753787371100307e-28	0.0	0.0	0.0	0.0001086506	4.016064e-05	500.0	0.0	5.340643852607604e-05	1.0	1.0	0.0	0.0	0.0	0.0
5378.916	1.146199192155574e-28	0.0	0.0	0.0	0.0001086506	4.016064e-05	500.0	0.0	5.208058880238549e-05	1.0	1.0	0.0	0.0	0.0	0.0
5379.654	1.1212961778969252e-28	0.0	0.0	0.0	0.0001086506	4.016064e-05	500.0	0.0	5.0949054550380377e-05	1.0	1.0	0.0	0.0	0.0	0.0
5380.391	1.1014362313670917e-28	0.0	0.0	0.0	0.0001086506	4.016064e-05	500.0	0.0	5.004666540551241e-05	1.0	1.0	0.0	0.0	0.0	0.0
5381.128	1.0868682290268723e-28	0.0	0.0	0.0	0.0001086506	4.016064e-05	500.0	0.0	4.938472972736357e-05	1.0	1.0	0.0	0.0	0.0	0.0
5381.865	1.0774741943817057e-28	0.0	0.0	0.0	0.0001086506	4.016064e-05	500.0	0.0	4.895788694218397e-05	1.0	1.0	0.0	0.0	0.0	0.0
5382.602	1.0728019586232432e-28	0.0	0.0	0.0	0.0001086506	4.016064e-05	500.0	0.0	4.874559156543827e-05	1.0	1.0	0.0	0.0	0.0	0.0
5383.339	1.072191895104163e-28	0.0	0.0	0.0	0.0001086506	4.016064e-05	500.0	0.0	4.871787171752877e-05	1.0	1.0	0.0	0.0	0.0	0.0
5384.076	1.0749452697592848e-28	0.0	0.0	0.0	0.0001086506	4.016064e-05	500.0	0.0	4.884297856999708e-05	1.0	1.0	0.0	0.0	0.0	0.0
5384.813	1.0805079696182831e-28	0.0	0.0	0.0	0.0001086506	4.016064e-05	500.0	0.0	4.909573453594986e-05	1.0	1.0	0.0	0.0	0.0	0.0
5385.55	1.0886372743380555e-28	0.0	0.0	0.0	0.0001086506	4.016064e-05	500.0	0.0	4.946511097527847e-05	1.0	1.0	0.0	0.0	0.0	0.0
5386.287	1.0995206038130475e-28	0.0	0.0	0.0	0.0001086506	4.016064e-05	500.0	0.0	4.9959623806091045e-05	1.0	1.0	0.0	0.0	0.0	0.0
5387.025	1.1138469215356394e-28	0.0	0.0	0.0	0.0001086506	4.016064e-05	500.0	0.0	5.061057790505482e-05	1.0	1.0	0.0	0.0	0.0	0.0
5387.762	1.1326992730754559e-28	0.0	0.0	0.0	0.0001086506	4.016064e-05	500.0	0.0	5.146718430926692e-05	1.0	1.0	0.0	0.0	0.0	0.0
5388.499	1.157580889436288e-28	0.0	0.0	0.0	0.0001086506	4.016064e-05	500.0	0.0	5.2597746291246863e-05	1.0	1.0	0.0	0.0	0.0	0.0
5389.236	1.190221249687665e-28	0.0	0.0	0.0	0.0001086506	4.016064e-05	500.0	0.0	5.408084730217739e-05	1.0	1.0	0.0	0.0	0.0	0.0
5389.973	1.2324712543492201e-28	0.0	0.0	0.0	0.0001086506	4.016064e-05	500.0	0.0	5.6000587897648565e-05	1.0	1.0	0.0	0.0	0.0	0.0
5390.71	1.2862135145649356e-28	0.0	0.0	0.0	0.0001086506	4.016064e-05	500.0	0.0	5.844250948925406e-05	1.0	1.0	0.0	0.0	0.0	0.0
5391.447	1.3533225259629542e-28	0.0	0.0	0.0	0.0001086506	4.016064e-05	500.0	0.0	6.149178473868245e-05	1.0	1.0	0.0	0.0	0.0	0.0
5392.184	1.4356718936354361e-28	0.0	0.0	0.0	0.0001086506	4.016064e-05	500.0	0.0	6.523354584376695e-05	1.0	1.0	0.0	0.0	0.0	0.0
5392.921	1.5351621693794244e-28	0.0	0.0	0.0	0.0001086506	4.016064e-05	500.0	0.0	6.975414939707613e-05	1.0	1.0	0.0	0.0	0.0	0.0
5393.658	1.653721542560536e-28	0.0	0.0	0.0	0.0001086506	4.016064e-05	500.0	0.0	7.514120777713121e-05	1.0	1.0	0.0	0.0	0.0	0.0
5394.396	1.793422927379231e-28	0.0	0.0	0.0	0.0001086506	4.016064e-05	500.0	0.0	8.148890931771886e-05	1.0	1.0	0.0	0.0	0.0	0.0
5395.133	1.9554647106815e-28	0.0	0.0	0.0	0.0001086506	4.016064e-05	500.0	0.0	8.88517058915846e-05	1.0	1.0	0.0	0.0	0.0	0.0
5395.87	2.1408883030945074e-28	0.0	0.0	0.0	0.0001086506	4.016064e-05	500.0	0.0	9.72769167422063e-05	1.0	1.0	0.0	0.0	0.0	0.0
5396.607	2.3492699323360317e-28	0.0	0.0	0.0	0.0001086506	4.016064e-05	500.0	0.0	0.00010674528665624297	1.0	1.0	0.0	0.0	0.0	0.0
5397.344	2.5782252124043637e-28	0.0	0.0	0.0	0.0001086506	4.016064e-05	500.0	0.0	0.00011714847475564213	1.0	1.0	0.0	0.0	0.0	0.0
5398.081	2.8227993112219123e-28	0.0	0.0	0.0	0.0001086506	4.016064e-05	500.0	0.0	0.00012826134515321773	1.0	1.0	0.0	0.0	0.0	0.0
5398.818	3.07511103894517e-28	0.0	0.0	0.0	0.0001086506	4.016064e-05	500.0	0.0	0.00013972579516461758	1.0	1.0	0.0	0.0	0.0	0.0
5399.555	3.324441458881579e-28	0.0	0.0	0.0	0.0001086506	4.016064e-05	500.0	0.0	0.0001510547815794603	1.0	1.0	0.0	0.0	0.0	0.0
5400.292	3.557891130659647e-28	0.0	0.0	0.0	0.0001086506	4.016064e-05	500.0	0.0	0.00016166218424134874	1.0	1.0	0.0	0.0	0.0	0.0
5401.029	3.7616060470784414e-28	0.0	0.0	0.0	0.0001086506	4.016064e-05	500.0	0.0	0.0001709185097278175	1.0	1.0	0.0	0.0	0.0	0.0
5401.767	3.9226042172475274e-28	0.0	0.0	0.0	0.0001086506	4.016064e-05	500.0	0.0	0.0001782338869815249	1.0	1.0	0.0	0.0	0.0	0.0
5402.504	4.029736118343429e-28	0.0	0.0	0.0	0.0001086506	4.016064e-05	500.0	0.0	0.00018310170797352938	1.0	1.0	0.0	0.0	0.0	0.0
5403.241	4.076567323770976e-28	0.0	0.0	0.0	0.0001086506	4.016064e-05	500.0	0.0	0.00018522960753032916	1.0	1.0	0.0	0.0	0.0	0.0
5403.978	4.061423203747531e-28	0.0	0.0	0.0	0.0001086506	4.016064e-05	500.0	0.0	0.00018454149442301512	1.0	1.0	0.0	0.0	0.0	0.0
5404.715	3.987863223943896e-28	0.0	0.0	0.0	0.0001086506	4.016064e-05	500.0	0.0	0.00018119910237922025	1.0	1.0	0.0	0.0	0.0	0.0
5405.452	3.8640911748678594e-28	0.0	0.0	0.0	0.0001086506	4.016064e-05	500.0	0.0	0.0001755751922968593	1.0	1.0	0.0	0.0	0.0	0.0
5406.189	3.7016890362912745e-28	0.0	0.0	0.0	0.0001086506	4.016064e-05	500.0	0.0	0.00016819602202896824	1.0	1.0	0.0	0.0	0.0	0.0
5406.926	3.5139497090583873e-28	0.0	0.0	0.0	0.0001086506	4.016064e-05	500.0	0.0	0.00015966558964813178	1.0	1.0	0.0	0.0	0.0	0.0
5407.663	3.3141443452682705e-28	0.0	0.0	0.0	0.0001086506	4.016064e-05	500.0	0.0	0.00015058690501523273	1.0	1.0	0.0	0.0	0.0	0.0
5408.4	3.1140351789981333e-28	0.0	0.0	0.0	0.0001086506	4.016064e-05	500.0	0.0	0.0001414944163139419	1.0	1.0	0.0	0.0	0.0	0.0
5409.138	2.9226010778149877e-28	0.0	0.0	0.0	0.0001086506	4.016064e-05	500.0	0.0	0.00013279610211628157	1.0	1.0	0.0	0.0	0.0	0.0
5409.875	2.746588761021573e-28	0.0	0.0	0.0	0.0001086506	4.016064e-05	500.0	0.0	0.00012479851744006692	1.0	1.0	0.0	0.0	0.0	0.0
5410.612	2.588984810271822e-28	0.0	0.0	0.0	0.0001086506	4.016064e-05	500.0	0.0	0.00011763736551394069	1.0	1.0	0.0	0.0	0.0	0.0
5411.349	2.4505029094704953e-28	0.0	0.0	0.0	0.0001086506	4.016064e-05	500.0	0.0	0.00011134507445182335	1.0	1.0	0.0	0.0	0.0	0.0
5412.086	2.3299543075700045e-28	0.0	0.0	0.0	0.0001086506	4.016064e-05	500.0	0.0	0.00010586763020892967	1.0	1.0	0.0	0.0	0.0	0.0
5412.823	2.224937093368178e-28	0.0	0.0	0.0	0.0001086506	4.016064e-05	500.0	0.0	0.0001010958956034188	1.0	1.0	0.0	0.0	0.0	0.0
5413.56	2.132460599950139e-28	0.0	0.0	0.0	0.0001086506	4.016064e-05	500.0	0.0	9.689398178202281e-05	1.0	1.0	0.0	0.0	0.0	0.0
5414.297	2.0494452730861607e-28	0.0	0.0	0.0	0.0001086506	4.016064e-05	500.0	0.0	9.312196106146411e-05	1.0	1.0	0.0	0.0	0.0	0.0
5415.034	1.9730859351762593e-28	0.0	0.0	0.0	0.0001086506	4.016064e-05	500.0	0.0	8.965237278559993e-05	1.0	1.0	0.0	0.0	0.0	0.0
5415.771	1.9010925920348925e-28	0.0	0.0	0.0	0.0001086506	4.016064e-05	500.0	0.0	8.638116501794897e-05	1.0	1.0	0.0	0.0	0.0	0.0
5416.509	1.8317350108324734e-28	0.0	0.0	0.0	0.0001086506	4.016064e-05	500.0	0.0	8.322972005824868e-05	1.0	1.0	0.0	0.0	0.0	0.0
5417.246	1.7642603988445233e-28	0.0	0.0	0.0	0.0001086506	4.016064e-05	500.0	0.0	8.01638327800207e-05	1.0	1.0	0.0	0.0	0.0	0.0
5417.983	1.698288559376917e-28	0.0	0.0	0.0	0.0001086506	4.016064e-05	500.0	0.0	7.716622794190541e-05	1.0	1.0	0.0	0.0	0.0	0.0
5418.72	1.6340649496141325e-28	0.0	0.0	0.0	0.0001086506	4.016064e-05	500.0	0.0	7.424805853963065e-05	1.0	1.0	0.0	0.0	0.0	0.0
5419.457	1.5721773481930131e-28	0.0	0.0	0.0	0.0001086506	4.016064e-05	500.0	0.0	7.14360318486e-05	1.0	1.0	0.0	0.0	0.0	0.0
5420.194	1.5133386885288495e-28	0.0	0.0	0.0	0.0001086506	4.016064e-05	500.0	0.0	6.876254188226184e-05	1.0	1.0	0.0	0.0	0.0	0.0
5420.931	1.4581848891165878e-28	0.0	0.0	0.0	0.0001086506	4.016064e-05	500.0	0.0	6.625648327766865e-05	1.0	1.0	0.0	0.0	0.0	0.0
5421.668	1.4071300999718888e-28	0.0	0.0	0.0	0.0001086506	4.016064e-05	500.0	0.0	6.393667403505607e-05	1.0	1.0	0.0	0.0	0.0	0.0
5422.405	1.360306253507257e-28	0.0	0.0	0.0	0.0001086506	4.016064e-05	500.0	0.0	6.180910885218031e-05	1.0	1.0	0.0	0.0	0.0	0.0
5423.143	1.3175342974232666e-28	0.0	0.0	0.0	0.0001086506	4.016064e-05	500.0	0.0	5.9865652014721955e-05	1.0	1.0	0.0	0.0	0.0	0.0
5423.88	1.2786420839873762e-28	0.0	0.0	0.0	0.0001086506	4.016064e-05	500.0	0.0	5.8098481535601356e-05	1.0	1.0	0.0	0.0	0.0	0.0
5424.617	1.243236457041213e-28	0.0	0.0	0.0	0.0001086506	4.016064e-05	500.0	0.0	5.6489733325959006e-05	1.0	1.0	0.0	0.0	0.0	0.0
5425.354	1.2110456896341508e-28	0.0	0.0	0.0	0.0001086506	4.016064e-05	500.0	0.0	5.5027060753831694e-05	1.0	1.0	0.0	0.0	0.0	0.0
5426.091	1.181919287552346e-28	0.0	0.0	0.0	0.0001086506	4.016064e-05	500.0	0.0	5.3703625716975084e-05	1.0	1.0	0.0	0.0	0.0	0.0
5426.828	1.1558308441134257e-28	0.0	0.0	0.0	0.0001086506	4.016064e-05	500.0	0.0	5.25182283580034e-05	1.0	1.0	0.0	0.0	0.0	0.0
5427.565	1.1328305863611098e-28	0.0	0.0	0.0	0.0001086506	4.016064e-05	500.0	0.0	5.147315087535878e-05	1.0	1.0	0.0	0.0	0.0	0.0
5428.302	1.112970202212849e-28	0.0	0.0	0.0	0.0001086506	4.016064e-05	500.0	0.0	5.0570741846141285e-05	1.0	1.0	0.0	0.0	0.0	0.0
5429.039	1.0962287924408225e-28	0.0	0.0	0.0	0.0001086506	4.016064e-05	500.0	0.0	4.981005165871459e-05	1.0	1.0	0.0	0.0	0.0	0.0
5429.776	1.0824652280281329e-28	0.0	0.0	0.0	0.0001086506	4.016064e-05	500.0	0.0	4.9184667743302494e-05	1.0	1.0	0.0	0.0	0.0	0.0
5430.514	1.0713978460729049e-28	0.0	0.0	0.0	0.0001086506	4.016064e-05	500.0	0.0	4.8681792001743834e-05	1.0	1.0	0.0	0.0	0.0	0.0
5431.251	1.062694389434109e-28	0.0	0.0	0.0	0.0001086506	4.016064e-05	500.0	0.0	4.8286327452940534e-05	1.0	1.0	0.0	0.0	0.0	0.0
5431.988	1.0559448905460155e-28	0.0	0.0	0.0	0.0001086506	4.016064e-05	500.0	0.0	4.797964613732044e-05	1.0	1.0	0.0	0.0	0.0	0.0
5432.725	1.050795299266744e-28	0.0	0.0	0.0	0.0001086506	4.016064e-05	500.0	0.0	4.774566085120999e-05	1.0	1.0	0.0	0.0	0.0	0.0
