Gas data
Time: 1.000786e+02
radius 	rho 	P 	T 	vel 	nH1 	fH1 	fHeI 	fHII 	fHeII 	fHeIII 	q_eff_lya 
1.000000e+04 	3.140273e-28 	3.940005e-16 	1.088470e+04 	0.000000e+00 	4.635108e-08 	3.248454e-04 	5.772776e-04 	9.996752e-01 	9.994227e-01 	2.175625e-19 	3.917424e-13 
1.000074e+04 	3.137538e-28 	3.936574e-16 	1.285899e+04 	0.000000e+00 	4.019796e-08 	2.819676e-04 	5.090889e-04 	9.997180e-01 	9.994909e-01 	1.412368e-15 	2.032524e-12 
1.000147e+04 	3.151393e-28 	3.953957e-16 	1.424336e+04 	0.000000e+00 	3.716483e-08 	2.595457e-04 	4.736967e-04 	9.997405e-01 	9.995263e-01 	1.178876e-13 	4.917564e-12 
1.000221e+04 	3.170311e-28 	3.977693e-16 	1.495651e+04 	0.000000e+00 	3.607241e-08 	2.504134e-04 	4.595088e-04 	9.997496e-01 	9.995405e-01 	7.972316e-13 	7.275837e-12 
1.000295e+04 	3.159733e-28 	3.964422e-16 	1.528546e+04 	0.000000e+00 	3.517736e-08 	2.450174e-04 	4.506798e-04 	9.997550e-01 	9.995493e-01 	1.801289e-12 	8.610959e-12 
1.000369e+04 	3.099192e-28 	3.888461e-16 	1.546568e+04 	0.000000e+00 	3.351395e-08 	2.379915e-04 	4.382901e-04 	9.997620e-01 	9.995617e-01 	2.779555e-12 	9.415236e-12 
1.000442e+04 	2.992554e-28 	3.754666e-16 	1.560024e+04 	0.000000e+00 	3.102593e-08 	2.281745e-04 	4.205767e-04 	9.997718e-01 	9.995794e-01 	3.823333e-12 	1.005090e-11 
1.000516e+04 	2.859604e-28 	3.587858e-16 	1.572404e+04 	0.000000e+00 	2.814774e-08 	2.166316e-04 	3.996181e-04 	9.997834e-01 	9.996004e-01 	5.082411e-12 	1.066314e-11 
1.000590e+04 	2.725626e-28 	3.419760e-16 	1.584178e+04 	0.000000e+00 	2.541625e-08 	2.052247e-04 	3.788634e-04 	9.997948e-01 	9.996211e-01 	6.587335e-12 	1.127040e-11 
1.000663e+04 	2.615376e-28 	3.281433e-16 	1.594474e+04 	0.000000e+00 	2.327840e-08 	1.958858e-04 	3.618612e-04 	9.998041e-01 	9.996381e-01 	8.176946e-12 	1.182186e-11 
1.000737e+04 	2.540259e-28 	3.187186e-16 	1.602421e+04 	0.000000e+00 	2.187308e-08 	1.895030e-04 	3.502397e-04 	9.998105e-01 	9.996498e-01 	9.579112e-12 	1.226084e-11 
1.000811e+04 	2.499717e-28 	3.136319e-16 	1.607802e+04 	0.000000e+00 	2.112578e-08 	1.859971e-04 	3.438606e-04 	9.998140e-01 	9.996561e-01 	1.059190e-11 	1.256472e-11 
1.000885e+04 	2.477978e-28 	3.109044e-16 	1.611566e+04 	0.000000e+00 	2.072453e-08 	1.840651e-04 	3.403472e-04 	9.998159e-01 	9.996597e-01 	1.130535e-11 	1.278048e-11 
1.000958e+04 	2.456637e-28 	3.082268e-16 	1.615082e+04 	0.000000e+00 	2.033700e-08 	1.821924e-04 	3.369369e-04 	9.998178e-01 	9.996631e-01 	1.199510e-11 	1.298451e-11 
1.001032e+04 	2.424345e-28 	3.041752e-16 	1.619243e+04 	0.000000e+00 	1.976788e-08 	1.794527e-04 	3.319386e-04 	9.998205e-01 	9.996681e-01 	1.287720e-11 	1.322901e-11 
1.001106e+04 	2.377048e-28 	2.982410e-16 	1.624548e+04 	0.000000e+00 	1.895601e-08 	1.755064e-04 	3.247353e-04 	9.998245e-01 	9.996753e-01 	1.412360e-11 	1.354552e-11 
1.001179e+04 	2.318492e-28 	2.908941e-16 	1.630885e+04 	0.000000e+00 	1.797795e-08 	1.706549e-04 	3.158789e-04 	9.998293e-01 	9.996841e-01 	1.578004e-11 	1.393075e-11 
1.001253e+04 	2.248181e-28 	2.820724e-16 	1.638393e+04 	0.000000e+00 	1.684153e-08 	1.648673e-04 	3.053106e-04 	9.998351e-01 	9.996947e-01 	1.798055e-11 	1.439745e-11 
1.001327e+04 	2.170088e-28 	2.722744e-16 	1.646922e+04 	0.000000e+00 	1.562540e-08 	1.584667e-04 	2.936210e-04 	9.998415e-01 	9.997064e-01 	2.081364e-11 	1.494116e-11 
1.001400e+04 	2.094278e-28 	2.627627e-16 	1.655641e+04 	0.000000e+00 	1.448980e-08 	1.522692e-04 	2.823007e-04 	9.998477e-01 	9.997177e-01 	2.409299e-11 	1.551214e-11 
1.001474e+04 	2.020815e-28 	2.535456e-16 	1.664484e+04 	0.000000e+00 	1.343206e-08 	1.462851e-04 	2.713665e-04 	9.998537e-01 	9.997286e-01 	2.784343e-11 	1.610712e-11 
1.001548e+04 	1.955138e-28 	2.453052e-16 	1.672864e+04 	0.000000e+00 	1.252133e-08 	1.409475e-04 	2.616112e-04 	9.998591e-01 	9.997384e-01 	3.181670e-11 	1.668602e-11 
1.001622e+04 	1.904266e-28 	2.389225e-16 	1.679871e+04 	0.000000e+00 	1.183787e-08 	1.368139e-04 	2.540557e-04 	9.998632e-01 	9.997459e-01 	3.543077e-11 	1.718132e-11 
1.001695e+04 	1.867943e-28 	2.343652e-16 	1.685358e+04 	0.000000e+00 	1.136091e-08 	1.338547e-04 	2.486474e-04 	9.998661e-01 	9.997514e-01 	3.841736e-11 	1.757652e-11 
1.001769e+04 	1.841469e-28 	2.310435e-16 	1.689706e+04 	0.000000e+00 	1.101897e-08 	1.316925e-04 	2.446957e-04 	9.998683e-01 	9.997553e-01 	4.083466e-11 	1.789429e-11 
1.001843e+04 	1.824071e-28 	2.288606e-16 	1.692958e+04 	0.000000e+00 	1.079618e-08 	1.302604e-04 	2.420794e-04 	9.998697e-01 	9.997579e-01 	4.261123e-11 	1.813462e-11 
1.001916e+04 	1.816412e-28 	2.278997e-16 	1.695001e+04 	0.000000e+00 	1.069695e-08 	1.296074e-04 	2.408887e-04 	9.998704e-01 	9.997591e-01 	4.359822e-11 	1.828673e-11 
1.001990e+04 	1.819629e-28 	2.283034e-16 	1.695623e+04 	0.000000e+00 	1.073402e-08 	1.298265e-04 	2.412929e-04 	9.998702e-01 	9.997587e-01 	4.357866e-11 	1.833325e-11 
1.002064e+04 	1.832159e-28 	2.298754e-16 	1.695043e+04 	0.000000e+00 	1.088824e-08 	1.307913e-04 	2.430610e-04 	9.998692e-01 	9.997569e-01 	4.271160e-11 	1.828985e-11 
1.002138e+04 	1.850276e-28 	2.321485e-16 	1.693741e+04 	0.000000e+00 	1.111482e-08 	1.322057e-04 	2.456506e-04 	9.998678e-01 	9.997543e-01 	4.136052e-11 	1.819279e-11 
1.002211e+04 	1.870393e-28 	2.346725e-16 	1.692200e+04 	0.000000e+00 	1.136963e-08 	1.337820e-04 	2.485357e-04 	9.998662e-01 	9.997515e-01 	3.988768e-11 	1.807839e-11 
1.002285e+04 	1.887072e-28 	2.367651e-16 	1.691041e+04 	0.000000e+00 	1.158312e-08 	1.350895e-04 	2.509269e-04 	9.998649e-01 	9.997491e-01 	3.868034e-11 	1.799261e-11 
1.002359e+04 	1.896749e-28 	2.379794e-16 	1.690712e+04 	0.000000e+00 	1.170715e-08 	1.358393e-04 	2.522972e-04 	9.998642e-01 	9.997477e-01 	3.801280e-11 	1.796838e-11 
1.002432e+04 	1.898835e-28 	2.382410e-16 	1.691304e+04 	0.000000e+00 	1.173220e-08 	1.359805e-04 	2.525545e-04 	9.998640e-01 	9.997474e-01 	3.792950e-11 	1.801210e-11 
1.002506e+04 	1.894368e-28 	2.376806e-16 	1.692651e+04 	0.000000e+00 	1.167186e-08 	1.356001e-04 	2.518570e-04 	9.998644e-01 	9.997481e-01 	3.830498e-11 	1.811178e-11 
1.002580e+04 	1.883821e-28 	2.363572e-16 	1.694740e+04 	0.000000e+00 	1.153266e-08 	1.347330e-04 	2.502697e-04 	9.998653e-01 	9.997497e-01 	3.915467e-11 	1.826726e-11 
1.002654e+04 	1.868426e-28 	2.344258e-16 	1.697445e+04 	0.000000e+00 	1.133192e-08 	1.334786e-04 	2.479742e-04 	9.998665e-01 	9.997520e-01 	4.042154e-11 	1.846991e-11 
1.002727e+04 	1.853776e-28 	2.325876e-16 	1.700110e+04 	0.000000e+00 	1.114229e-08 	1.322822e-04 	2.457855e-04 	9.998677e-01 	9.997542e-01 	4.170726e-11 	1.867119e-11 
1.002801e+04 	1.847302e-28 	2.317754e-16 	1.701746e+04 	0.000000e+00 	1.105799e-08 	1.317414e-04 	2.447957e-04 	9.998683e-01 	9.997552e-01 	4.231273e-11 	1.879555e-11 
1.002875e+04 	1.856889e-28 	2.329783e-16 	1.701366e+04 	0.000000e+00 	1.117799e-08 	1.324835e-04 	2.461524e-04 	9.998675e-01 	9.997538e-01 	4.155551e-11 	1.876659e-11 
1.002948e+04 	1.885661e-28 	2.365881e-16 	1.698624e+04 	0.000000e+00 	1.154617e-08 	1.347592e-04 	2.503138e-04 	9.998652e-01 	9.997497e-01 	3.928330e-11 	1.855882e-11 
1.003022e+04 	1.930981e-28 	2.422743e-16 	1.693902e+04 	0.000000e+00 	1.214045e-08 	1.383697e-04 	2.569122e-04 	9.998616e-01 	9.997431e-01 	3.590942e-11 	1.820481e-11 
1.003096e+04 	1.986003e-28 	2.491777e-16 	1.688175e+04 	0.000000e+00 	1.288363e-08 	1.427718e-04 	2.649533e-04 	9.998572e-01 	9.997350e-01 	3.222402e-11 	1.778189e-11 
1.003170e+04 	2.040921e-28 	2.560682e-16 	1.682626e+04 	0.000000e+00 	1.364888e-08 	1.471821e-04 	2.730037e-04 	9.998528e-01 	9.997270e-01 	2.893942e-11 	1.737899e-11 
1.003243e+04 	2.086228e-28 	2.617527e-16 	1.678291e+04 	0.000000e+00 	1.429765e-08 	1.508297e-04 	2.796567e-04 	9.998492e-01 	9.997203e-01 	2.648977e-11 	1.706876e-11 
1.003317e+04 	2.116351e-28 	2.655321e-16 	1.675598e+04 	0.000000e+00 	1.473827e-08 	1.532650e-04 	2.840911e-04 	9.998467e-01 	9.997159e-01 	2.490827e-11 	1.687800e-11 
1.003391e+04 	2.125247e-28 	2.666483e-16 	1.675133e+04 	0.000000e+00 	1.487020e-08 	1.539896e-04 	2.854004e-04 	9.998460e-01 	9.997146e-01 	2.433588e-11 	1.684524e-11 
1.003464e+04 	2.114157e-28 	2.652569e-16 	1.676800e+04 	0.000000e+00 	1.470664e-08 	1.530948e-04 	2.837544e-04 	9.998469e-01 	9.997162e-01 	2.467973e-11 	1.696300e-11 
1.003538e+04 	2.087651e-28 	2.619312e-16 	1.680163e+04 	0.000000e+00 	1.431901e-08 	1.509522e-04 	2.798314e-04 	9.998490e-01 	9.997202e-01 	2.575889e-11 	1.720223e-11 
1.003612e+04 	2.053121e-28 	2.575988e-16 	1.684597e+04 	0.000000e+00 	1.382110e-08 	1.481537e-04 	2.747136e-04 	9.998518e-01 	9.997253e-01 	2.736787e-11 	1.752133e-11 
1.003686e+04 	2.017794e-28 	2.531665e-16 	1.689363e+04 	0.000000e+00 	1.332015e-08 	1.452836e-04 	2.694679e-04 	9.998547e-01 	9.997305e-01 	2.922321e-11 	1.786905e-11 
1.003759e+04 	1.986348e-28 	2.492211e-16 	1.693919e+04 	0.000000e+00 	1.288114e-08 	1.427194e-04 	2.647837e-04 	9.998573e-01 	9.997352e-01 	3.109065e-11 	1.820602e-11 
1.003833e+04 	1.962486e-28 	2.462272e-16 	1.697688e+04 	0.000000e+00 	1.255231e-08 	1.407671e-04 	2.612172e-04 	9.998592e-01 	9.997388e-01 	3.262242e-11 	1.848823e-11 
1.003907e+04 	1.948964e-28 	2.445306e-16 	1.700309e+04 	0.000000e+00 	1.236636e-08 	1.396440e-04 	2.591663e-04 	9.998604e-01 	9.997408e-01 	3.360979e-11 	1.868633e-11 
1.003980e+04 	1.944268e-28 	2.439414e-16 	1.701868e+04 	0.000000e+00 	1.230005e-08 	1.392307e-04 	2.584122e-04 	9.998608e-01 	9.997416e-01 	3.404316e-11 	1.880484e-11 
1.004054e+04 	1.942817e-28 	2.437593e-16 	1.702978e+04 	0.000000e+00 	1.227781e-08 	1.390828e-04 	2.581416e-04 	9.998609e-01 	9.997419e-01 	3.421956e-11 	1.888954e-11 
1.004128e+04 	1.937152e-28 	2.430486e-16 	1.704589e+04 	0.000000e+00 	1.219930e-08 	1.385976e-04 	2.572547e-04 	9.998614e-01 	9.997427e-01 	3.467264e-11 	1.901302e-11 
1.004201e+04 	1.923174e-28 	2.412949e-16 	1.707257e+04 	0.000000e+00 	1.201042e-08 	1.374433e-04 	2.551465e-04 	9.998626e-01 	9.997449e-01 	3.573965e-11 	1.921868e-11 
1.004275e+04 	1.900655e-28 	2.384694e-16 	1.711021e+04 	0.000000e+00 	1.171111e-08 	1.356060e-04 	2.517902e-04 	9.998644e-01 	9.997482e-01 	3.747602e-11 	1.951157e-11 
1.004349e+04 	1.874332e-28 	2.351668e-16 	1.715379e+04 	0.000000e+00 	1.136641e-08 	1.334630e-04 	2.478763e-04 	9.998665e-01 	9.997521e-01 	3.965849e-11 	1.985460e-11 
1.004423e+04 	1.847545e-28 	2.318059e-16 	1.719920e+04 	0.000000e+00 	1.102096e-08 	1.312830e-04 	2.438953e-04 	9.998687e-01 	9.997561e-01 	4.207803e-11 	2.021665e-11 
1.004496e+04 	1.821720e-28 	2.285657e-16 	1.724445e+04 	0.000000e+00 	1.069288e-08 	1.291805e-04 	2.400566e-04 	9.998708e-01 	9.997599e-01 	4.463351e-11 	2.058197e-11 
1.004570e+04 	1.800238e-28 	2.258704e-16 	1.728413e+04 	0.000000e+00 	1.042362e-08 	1.274304e-04 	2.368608e-04 	9.998726e-01 	9.997631e-01 	4.691772e-11 	2.090625e-11 
1.004644e+04 	1.788023e-28 	2.243378e-16 	1.731118e+04 	0.000000e+00 	1.027098e-08 	1.264221e-04 	2.350208e-04 	9.998736e-01 	9.997650e-01 	4.836403e-11 	2.112926e-11 
1.004717e+04 	1.788153e-28 	2.243541e-16 	1.732103e+04 	0.000000e+00 	1.026973e-08 	1.263976e-04 	2.349795e-04 	9.998736e-01 	9.997650e-01 	4.856701e-11 	2.121096e-11 
1.004791e+04 	1.796200e-28 	2.253638e-16 	1.731925e+04 	0.000000e+00 	1.036576e-08 	1.270079e-04 	2.360977e-04 	9.998730e-01 	9.997639e-01 	4.788910e-11 	2.119622e-11 
1.004865e+04 	1.805273e-28 	2.265021e-16 	1.731561e+04 	0.000000e+00 	1.047516e-08 	1.277033e-04 	2.373704e-04 	9.998723e-01 	9.997626e-01 	4.707107e-11 	2.116601e-11 
1.004939e+04 	1.811159e-28 	2.272406e-16 	1.731594e+04 	0.000000e+00 	1.054592e-08 	1.281481e-04 	2.381841e-04 	9.998719e-01 	9.997618e-01 	4.653647e-11 	2.116871e-11 
1.005012e+04 	1.814751e-28 	2.276912e-16 	1.731934e+04 	0.000000e+00 	1.058846e-08 	1.284104e-04 	2.386640e-04 	9.998716e-01 	9.997613e-01 	4.622842e-11 	2.119696e-11 
1.005086e+04 	1.821225e-28 	2.285036e-16 	1.731854e+04 	0.000000e+00 	1.066714e-08 	1.289047e-04 	2.395672e-04 	9.998711e-01 	9.997604e-01 	4.560761e-11 	2.119031e-11 
1.005160e+04 	1.833706e-28 	2.300695e-16 	1.730973e+04 	0.000000e+00 	1.082128e-08 	1.298773e-04 	2.413447e-04 	9.998701e-01 	9.997587e-01 	4.443584e-11 	2.111732e-11 
1.005233e+04 	1.848504e-28 	2.319261e-16 	1.729816e+04 	0.000000e+00 	1.100573e-08 	1.310336e-04 	2.434580e-04 	9.998690e-01 	9.997565e-01 	4.311065e-11 	2.102168e-11 
1.005307e+04 	1.863425e-28 	2.337983e-16 	1.728629e+04 	0.000000e+00 	1.119359e-08 	1.322031e-04 	2.455942e-04 	9.998678e-01 	9.997544e-01 	4.178524e-11 	2.092398e-11 
1.005381e+04 	1.878172e-28 	2.356486e-16 	1.727483e+04 	0.000000e+00 	1.138088e-08 	1.333597e-04 	2.477062e-04 	9.998666e-01 	9.997523e-01 	4.051690e-11 	2.082991e-11 
1.005455e+04 	1.892885e-28 	2.374945e-16 	1.726361e+04 	0.000000e+00 	1.156933e-08 	1.345143e-04 	2.498140e-04 	9.998655e-01 	9.997502e-01 	3.929316e-11 	2.073809e-11 
1.005528e+04 	1.907152e-28 	2.392846e-16 	1.725337e+04 	0.000000e+00 	1.175340e-08 	1.356320e-04 	2.518547e-04 	9.998644e-01 	9.997481e-01 	3.816757e-11 	2.065455e-11 
1.005602e+04 	1.919256e-28 	2.408032e-16 	1.724575e+04 	0.000000e+00 	1.191065e-08 	1.365799e-04 	2.535838e-04 	9.998634e-01 	9.997464e-01 	3.721117e-11 	2.059256e-11 
1.005676e+04 	1.926966e-28 	2.417705e-16 	1.724379e+04 	0.000000e+00 	1.201076e-08 	1.371768e-04 	2.546714e-04 	9.998628e-01 	9.997453e-01 	3.660032e-11 	2.057660e-11 
1.005749e+04 	1.931112e-28 	2.422908e-16 	1.724661e+04 	0.000000e+00 	1.206377e-08 	1.374864e-04 	2.552350e-04 	9.998625e-01 	9.997448e-01 	3.628156e-11 	2.059952e-11 
1.005823e+04 	1.934797e-28 	2.427531e-16 	1.724983e+04 	0.000000e+00 	1.211093e-08 	1.377610e-04 	2.557339e-04 	9.998622e-01 	9.997443e-01 	3.597789e-11 	2.062571e-11 
1.005897e+04 	1.942425e-28 	2.437102e-16 	1.724827e+04 	0.000000e+00 	1.221067e-08 	1.383501e-04 	2.568073e-04 	9.998616e-01 	9.997432e-01 	3.540682e-11 	2.061303e-11 
1.005971e+04 	1.957320e-28 	2.455790e-16 	1.723788e+04 	0.000000e+00 	1.240837e-08 	1.395202e-04 	2.589415e-04 	9.998605e-01 	9.997411e-01 	3.435604e-11 	2.052866e-11 
1.006044e+04 	1.979842e-28 	2.484047e-16 	1.721866e+04 	0.000000e+00 	1.271122e-08 	1.412996e-04 	2.621884e-04 	9.998587e-01 	9.997378e-01 	3.287019e-11 	2.037318e-11 
1.006118e+04 	2.007758e-28 	2.519074e-16 	1.719308e+04 	0.000000e+00 	1.309268e-08 	1.435163e-04 	2.662316e-04 	9.998565e-01 	9.997338e-01 	3.110527e-11 	2.016756e-11 
1.006192e+04 	2.036754e-28 	2.555453e-16 	1.716679e+04 	0.000000e+00 	1.349521e-08 	1.458228e-04 	2.704372e-04 	9.998542e-01 	9.997296e-01 	2.938344e-11 	1.995782e-11 
1.006265e+04 	2.064721e-28 	2.590543e-16 	1.714254e+04 	0.000000e+00 	1.388924e-08 	1.480475e-04 	2.744927e-04 	9.998520e-01 	9.997255e-01 	2.783965e-11 	1.976563e-11 
1.006339e+04 	2.092273e-28 	2.625111e-16 	1.711899e+04 	0.000000e+00 	1.428345e-08 	1.502446e-04 	2.784954e-04 	9.998498e-01 	9.997215e-01 	2.638490e-11 	1.958036e-11 
1.006413e+04 	2.119204e-28 	2.658900e-16 	1.709672e+04 	0.000000e+00 	1.467427e-08 	1.523941e-04 	2.824098e-04 	9.998476e-01 	9.997176e-01 	2.504500e-11 	1.940621e-11 
1.006486e+04 	2.144368e-28 	2.690474e-16 	1.707720e+04 	0.000000e+00 	1.504401e-08 	1.544004e-04 	2.860627e-04 	9.998456e-01 	9.997139e-01 	2.387774e-11 	1.925451e-11 
1.006560e+04 	2.167793e-28 	2.719864e-16 	1.705972e+04 	0.000000e+00 	1.539260e-08 	1.562710e-04 	2.894660e-04 	9.998437e-01 	9.997105e-01 	2.282611e-11 	1.911941e-11 
1.006634e+04 	2.192733e-28 	2.751155e-16 	1.704112e+04 	0.000000e+00 	1.576836e-08 	1.582650e-04 	2.930932e-04 	9.998417e-01 	9.997069e-01 	2.177084e-11 	1.897637e-11 
1.006708e+04 	2.226575e-28 	2.793616e-16 	1.701373e+04 	0.000000e+00 	1.628646e-08 	1.609806e-04 	2.980343e-04 	9.998390e-01 	9.997020e-01 	2.044633e-11 	1.876717e-11 
1.006781e+04 	2.275024e-28 	2.854404e-16 	1.697258e+04 	0.000000e+00 	1.704399e-08 	1.648806e-04 	3.051321e-04 	9.998351e-01 	9.996949e-01 	1.874248e-11 	1.845591e-11 
1.006855e+04 	2.341299e-28 	2.937557e-16 	1.691515e+04 	0.000000e+00 	1.811063e-08 	1.702397e-04 	3.148826e-04 	9.998298e-01 	9.996851e-01 	1.666532e-11 	1.802770e-11 
1.006929e+04 	2.430306e-28 	3.049231e-16 	1.683929e+04 	0.000000e+00 	1.959689e-08 	1.774641e-04 	3.280225e-04 	9.998225e-01 	9.996720e-01 	1.429716e-11 	1.747302e-11 
1.007002e+04 	2.548493e-28 	3.197517e-16 	1.674259e+04 	0.000000e+00 	2.166519e-08 	1.870954e-04 	3.455325e-04 	9.998129e-01 	9.996545e-01 	1.175295e-11 	1.678378e-11 
1.007076e+04 	2.695375e-28 	3.381806e-16 	1.662867e+04 	0.000000e+00 	2.438824e-08 	1.991340e-04 	3.673998e-04 	9.998009e-01 	9.996326e-01 	9.276835e-12 	1.599714e-11 
1.007150e+04 	2.862317e-28 	3.591262e-16 	1.650866e+04 	0.000000e+00 	2.768802e-08 	2.128915e-04 	3.923654e-04 	9.997871e-01 	9.996076e-01 	7.158160e-12 	1.519749e-11 
1.007224e+04 	3.046921e-28 	3.822879e-16 	1.638714e+04 	0.000000e+00 	3.159080e-08 	2.281832e-04 	4.200868e-04 	9.997718e-01 	9.995799e-01 	5.434809e-12 	1.441765e-11 
1.007297e+04 	3.239275e-28 	4.064220e-16 	1.627319e+04 	0.000000e+00 	3.593948e-08 	2.441789e-04 	4.490567e-04 	9.997558e-01 	9.995509e-01 	4.134046e-12 	1.371304e-11 
1.007371e+04 	3.452945e-28 	4.332305e-16 	1.615928e+04 	0.000000e+00 	4.110842e-08 	2.620145e-04 	4.813284e-04 	9.997380e-01 	9.995187e-01 	3.093825e-12 	1.303398e-11 
1.007445e+04 	3.689990e-28 	4.629718e-16 	1.604780e+04 	0.000000e+00 	4.725625e-08 	2.818502e-04 	5.171897e-04 	9.997181e-01 	9.994828e-01 	2.286860e-12 	1.239335e-11 
1.007518e+04 	3.939373e-28 	4.942612e-16 	1.594570e+04 	0.000000e+00 	5.419208e-08 	3.027561e-04 	5.549520e-04 	9.996972e-01 	9.994450e-01 	1.698936e-12 	1.182714e-11 
1.007592e+04 	4.233154e-28 	5.311209e-16 	1.583866e+04 	0.000000e+00 	6.298681e-08 	3.274687e-04 	5.995464e-04 	9.996725e-01 	9.994005e-01 	1.219443e-12 	1.125402e-11 
1.007666e+04 	4.589927e-28 	5.758843e-16 	1.572445e+04 	0.000000e+00 	7.457661e-08 	3.575864e-04 	6.538398e-04 	9.996424e-01 	9.993462e-01 	8.351658e-13 	1.066523e-11 
1.007740e+04 	4.967024e-28 	6.231974e-16 	1.562266e+04 	0.000000e+00 	8.790640e-08 	3.895009e-04 	7.112858e-04 	9.996105e-01 	9.992887e-01 	5.740080e-13 	1.015980e-11 
1.007813e+04 	5.331636e-28 	6.689442e-16 	1.554138e+04 	0.000000e+00 	1.018473e-07 	4.204102e-04 	7.668171e-04 	9.995796e-01 	9.992332e-01 	4.090082e-13 	9.769046e-12 
1.007887e+04 	5.669639e-28 	7.113523e-16 	1.547612e+04 	0.000000e+00 	1.157229e-07 	4.492088e-04 	8.183988e-04 	9.995508e-01 	9.991816e-01 	3.015181e-13 	9.463471e-12 
1.007961e+04 	5.921675e-28 	7.429746e-16 	1.542897e+04 	0.000000e+00 	1.267331e-07 	4.710094e-04 	8.571886e-04 	9.995290e-01 	9.991428e-01 	2.370693e-13 	9.247087e-12 
1.008034e+04 	6.050551e-28 	7.591443e-16 	1.540909e+04 	0.000000e+00 	1.326294e-07 	4.824243e-04 	8.771761e-04 	9.995176e-01 	9.991228e-01 	2.060858e-13 	9.156959e-12 
1.008108e+04 	6.040484e-28 	7.578812e-16 	1.543524e+04 	0.000000e+00 	1.321682e-07 	4.815479e-04 	8.751080e-04 	9.995185e-01 	9.991249e-01 	2.101098e-13 	9.275615e-12 
1.008182e+04 	5.902584e-28 	7.405793e-16 	1.547090e+04 	0.000000e+00 	1.261123e-07 	4.702181e-04 	8.541413e-04 	9.995298e-01 	9.991459e-01 	2.299059e-13 	9.439317e-12 
1.008256e+04 	5.673382e-28 	7.118220e-16 	1.553854e+04 	0.000000e+00 	1.162078e-07 	4.507932e-04 	8.187456e-04 	9.995492e-01 	9.991813e-01 	2.799661e-13 	9.755611e-12 
1.008329e+04 	5.390775e-28 	6.763641e-16 	1.563399e+04 	0.000000e+00 	1.044755e-07 	4.265280e-04 	7.747957e-04 	9.995735e-01 	9.992252e-01 	3.679670e-13 	1.021517e-11 
1.008403e+04 	5.095371e-28 	6.393007e-16 	1.573513e+04 	0.000000e+00 	9.291026e-08 	4.013027e-04 	7.291596e-04 	9.995987e-01 	9.992708e-01 	4.888876e-13 	1.071931e-11 
1.008477e+04 	4.823486e-28 	6.051881e-16 	1.583575e+04 	0.000000e+00 	8.287441e-08 	3.781322e-04 	6.872698e-04 	9.996219e-01 	9.993127e-01 	6.414419e-13 	1.123873e-11 
1.008550e+04 	4.598440e-28 	5.769523e-16 	1.592949e+04 	0.000000e+00 	7.499718e-08 	3.589373e-04 	6.525804e-04 	9.996411e-01 	9.993474e-01 	8.100908e-13 	1.173901e-11 
1.008624e+04 	4.430819e-28 	5.559213e-16 	1.600851e+04 	0.000000e+00 	6.938365e-08 	3.446334e-04 	6.267101e-04 	9.996554e-01 	9.993733e-01 	9.698300e-13 	1.217315e-11 
